2003,01,01,3,1,オフィス街1	1643
2003,01,01,3,1,ロードサイド1	3078
2003,01,01,3,1,住宅街1	4434
2003,01,02,4,,オフィス街1	1022
2003,01,02,4,,ロードサイド1	3432
2003,01,02,4,,住宅街1	3191
2003,01,02,4,,駅前1	1001
2003,01,03,5,,オフィス街1	793
2003,01,03,5,,ロードサイド1	2020
2003,01,03,5,,住宅街1	1349
2003,01,03,5,,駅前1	637
2003,01,04,6,,オフィス街1	2457
2003,01,04,6,,ロードサイド1	1492
2003,01,04,6,,住宅街1	2777
2003,01,04,6,,駅前1	220
2003,01,05,7,1,オフィス街1	1633
2003,01,05,7,1,ロードサイド1	1445
2003,01,05,7,1,住宅街1	2240
2003,01,05,7,1,駅前1	1275
2003,01,06,1,,オフィス街1	5181
2003,01,06,1,,ロードサイド1	1926
2003,01,06,1,,住宅街1	3151
2003,01,06,1,,駅前1	1327
2003,01,07,2,,オフィス街1	6829
2003,01,07,2,,ロードサイド1	1971
2003,01,07,2,,住宅街1	3941
2003,01,07,2,,駅前1	305
2003,01,08,3,,オフィス街1	5232
2003,01,08,3,,ロードサイド1	757
2003,01,08,3,,住宅街1	6662
2003,01,08,3,,駅前1	492
2003,01,09,4,,オフィス街1	6381
2003,01,09,4,,ロードサイド1	1014
2003,01,09,4,,住宅街1	3863
2003,01,09,4,,駅前1	638
2003,01,10,5,,オフィス街1	5241
2003,01,10,5,,ロードサイド1	6395
2003,01,10,5,,住宅街1	2879
2003,01,10,5,,駅前1	251
2003,01,11,6,,オフィス街1	4749
2003,01,11,6,,ロードサイド1	2750
2003,01,11,6,,住宅街1	1860
2003,01,11,6,,駅前1	1601
2003,01,12,7,1,オフィス街1	2786
2003,01,12,7,1,ロードサイド1	2577
2003,01,12,7,1,住宅街1	790
2003,01,12,7,1,駅前1	1577
2003,01,13,1,1,オフィス街1	2142
2003,01,13,1,1,ロードサイド1	871
2003,01,13,1,1,住宅街1	4760
2003,01,13,1,1,駅前1	626
2003,01,14,2,,オフィス街1	4831
2003,01,14,2,,ロードサイド1	4587
2003,01,14,2,,住宅街1	5198
2003,01,14,2,,駅前1	970
2003,01,15,3,,オフィス街1	4916
2003,01,15,3,,ロードサイド1	2016
2003,01,15,3,,住宅街1	2383
2003,01,15,3,,駅前1	1085
2003,01,16,4,,オフィス街1	7363
2003,01,16,4,,ロードサイド1	3384
2003,01,16,4,,住宅街1	3257
2003,01,16,4,,駅前1	601
2003,01,17,5,,オフィス街1	5103
2003,01,17,5,,ロードサイド1	3459
2003,01,17,5,,住宅街1	3375
2003,01,17,5,,駅前1	1343
2003,01,18,6,,オフィス街1	4425
2003,01,18,6,,ロードサイド1	2037
2003,01,18,6,,住宅街1	3670
2003,01,18,6,,駅前1	1527
2003,01,19,7,1,オフィス街1	948
2003,01,19,7,1,ロードサイド1	5448
2003,01,19,7,1,住宅街1	2335
2003,01,19,7,1,駅前1	1737
2003,01,20,1,,オフィス街1	7005
2003,01,20,1,,ロードサイド1	968
2003,01,20,1,,住宅街1	3226
2003,01,20,1,,駅前1	1416
2003,01,21,2,,オフィス街1	4759
2003,01,21,2,,ロードサイド1	2293
2003,01,21,2,,住宅街1	2821
2003,01,21,2,,駅前1	1721
2003,01,22,3,,オフィス街1	6274
2003,01,22,3,,ロードサイド1	1271
2003,01,22,3,,住宅街1	3278
2003,01,22,3,,駅前1	1117
2003,01,23,4,,オフィス街1	5842
2003,01,23,4,,ロードサイド1	1451
2003,01,23,4,,住宅街1	2850
2003,01,23,4,,駅前1	1764
2003,01,24,5,,オフィス街1	6687
2003,01,24,5,,ロードサイド1	2578
2003,01,24,5,,住宅街1	1988
2003,01,24,5,,駅前1	590
2003,01,25,6,,オフィス街1	4280
2003,01,25,6,,ロードサイド1	3268
2003,01,25,6,,住宅街1	2625
2003,01,25,6,,駅前1	1690
2003,01,26,7,1,オフィス街1	2049
2003,01,26,7,1,ロードサイド1	3206
2003,01,26,7,1,住宅街1	2618
2003,01,26,7,1,駅前1	1708
2003,01,27,1,,オフィス街1	4923
2003,01,27,1,,ロードサイド1	2837
2003,01,27,1,,住宅街1	2354
2003,01,27,1,,駅前1	1661
2003,01,28,2,,オフィス街1	7248
2003,01,28,2,,ロードサイド1	1971
2003,01,28,2,,住宅街1	2716
2003,01,28,2,,駅前1	2300
2003,01,29,3,,オフィス街1	5264
2003,01,29,3,,ロードサイド1	1737
2003,01,29,3,,住宅街1	2094
2003,01,29,3,,駅前1	1885
2003,01,30,4,,オフィス街1	4146
2003,01,30,4,,ロードサイド1	1135
2003,01,30,4,,住宅街1	2216
2003,01,30,4,,駅前1	1877
2003,01,31,5,,オフィス街1	7161
2003,01,31,5,,ロードサイド1	2120
2003,01,31,5,,住宅街1	5414
2003,01,31,5,,駅前1	1945
2003,02,01,6,,オフィス街1	1886
2003,02,01,6,,ロードサイド1	2221
2003,02,01,6,,住宅街1	2634
2003,02,01,6,,駅前1	956
2003,02,02,7,1,オフィス街1	1570
2003,02,02,7,1,ロードサイド1	4610
2003,02,02,7,1,住宅街1	2680
2003,02,02,7,1,駅前1	1539
2003,02,03,1,,オフィス街1	6220
2003,02,03,1,,ロードサイド1	1265
2003,02,03,1,,住宅街1	1915
2003,02,03,1,,駅前1	2426
2003,02,04,2,,オフィス街1	5959
2003,02,04,2,,ロードサイド1	1423
2003,02,04,2,,住宅街1	2779
2003,02,04,2,,駅前1	735
2003,02,05,3,,オフィス街1	9928
2003,02,05,3,,ロードサイド1	1500
2003,02,05,3,,住宅街1	5843
2003,02,05,3,,駅前1	661
2003,02,06,4,,オフィス街1	9482
2003,02,06,4,,ロードサイド1	1475
2003,02,06,4,,住宅街1	4067
2003,02,06,4,,駅前1	2566
2003,02,07,5,,オフィス街1	5785
2003,02,07,5,,ロードサイド1	1306
2003,02,07,5,,住宅街1	1655
2003,02,07,5,,駅前1	2231
2003,02,08,6,,オフィス街1	2588
2003,02,08,6,,ロードサイド1	3724
2003,02,08,6,,住宅街1	3541
2003,02,08,6,,駅前1	1241
2003,02,09,7,1,オフィス街1	2258
2003,02,09,7,1,ロードサイド1	1527
2003,02,09,7,1,住宅街1	2446
2003,02,09,7,1,駅前1	245
2003,02,10,1,,オフィス街1	5053
2003,02,10,1,,ロードサイド1	3171
2003,02,10,1,,住宅街1	4261
2003,02,10,1,,駅前1	1326
2003,02,11,2,1,オフィス街1	3655
2003,02,11,2,1,ロードサイド1	876
2003,02,11,2,1,住宅街1	2447
2003,02,11,2,1,駅前1	1126
2003,02,12,3,,オフィス街1	3805
2003,02,12,3,,ロードサイド1	1838
2003,02,12,3,,住宅街1	3060
2003,02,12,3,,駅前1	1655
2003,02,13,4,,オフィス街1	5594
2003,02,13,4,,ロードサイド1	2342
2003,02,13,4,,住宅街1	4645
2003,02,13,4,,駅前1	1035
2003,02,14,5,,オフィス街1	10191
2003,02,14,5,,ロードサイド1	2982
2003,02,14,5,,住宅街1	2440
2003,02,14,5,,駅前1	1222
2003,02,15,6,,オフィス街1	5195
2003,02,15,6,,ロードサイド1	4775
2003,02,15,6,,住宅街1	3202
2003,02,15,6,,駅前1	194
2003,02,16,7,1,オフィス街1	3091
2003,02,16,7,1,ロードサイド1	2687
2003,02,16,7,1,住宅街1	1573
2003,02,16,7,1,駅前1	1110
2003,02,17,1,,オフィス街1	4077
2003,02,17,1,,ロードサイド1	1553
2003,02,17,1,,住宅街1	2743
2003,02,17,1,,駅前1	2918
2003,02,18,2,,オフィス街1	6095
2003,02,18,2,,ロードサイド1	2472
2003,02,18,2,,住宅街1	2728
2003,02,18,2,,駅前1	292
2003,02,19,3,,オフィス街1	5793
2003,02,19,3,,ロードサイド1	2229
2003,02,19,3,,住宅街1	4950
2003,02,19,3,,駅前1	305
2003,02,20,4,,オフィス街1	6611
2003,02,20,4,,ロードサイド1	1659
2003,02,20,4,,住宅街1	2058
2003,02,20,4,,駅前1	495
2003,02,21,5,,オフィス街1	5152
2003,02,21,5,,ロードサイド1	1839
2003,02,21,5,,住宅街1	2989
2003,02,21,5,,駅前1	1696
2003,02,22,6,,オフィス街1	5531
2003,02,22,6,,ロードサイド1	676
2003,02,22,6,,住宅街1	2283
2003,02,22,6,,駅前1	1803
2003,02,23,7,1,オフィス街1	1558
2003,02,23,7,1,ロードサイド1	1340
2003,02,23,7,1,住宅街1	2658
2003,02,23,7,1,駅前1	816
2003,02,24,1,,オフィス街1	2317
2003,02,24,1,,ロードサイド1	3559
2003,02,24,1,,住宅街1	2732
2003,02,24,1,,駅前1	897
2003,02,25,2,,オフィス街1	4883
2003,02,25,2,,ロードサイド1	1712
2003,02,25,2,,住宅街1	2236
2003,02,25,2,,駅前1	115
2003,02,26,3,,オフィス街1	3294
2003,02,26,3,,ロードサイド1	3481
2003,02,26,3,,住宅街1	3672
2003,02,26,3,,駅前1	1430
2003,02,27,4,,オフィス街1	7779
2003,02,27,4,,ロードサイド1	997
2003,02,27,4,,住宅街1	2983
2003,02,27,4,,駅前1	899
2003,02,28,5,,オフィス街1	5483
2003,02,28,5,,ロードサイド1	1671
2003,02,28,5,,住宅街1	2593
2003,02,28,5,,駅前1	2405
